wavelength,mRFP1 ab,mRFP1 em,mRFP1 2p,mRFP1 ex
300,0.2772,,,
301,0.2588,,,
302,0.2438,,,
303,0.2312,,,
304,0.22,,,
305,0.2096,,,
306,0.2018,,,
307,0.196,,,
308,0.1933,,,
309,0.1912,,,
310,0.1901,,,
311,0.1909,,,
312,0.1937,,,
313,0.1934,,,
314,0.1966,,,
315,0.1988,,,
316,0.2029,,,
317,0.2057,,,
318,0.2119,,,
319,0.2153,,,
320,0.2193,,,
321,0.2231,,,
322,0.2282,,,
323,0.2317,,,
324,0.2369,,,
325,0.2389,,,
326,0.2452,,,
327,0.2469,,,
328,0.2491,,,
329,0.2512,,,
330,0.2539,,,
331,0.2575,,,
332,0.2606,,,
333,0.2616,,,
334,0.265,,,
335,0.2669,,,
336,0.2699,,,
337,0.2723,,,
338,0.2734,,,
339,0.2746,,,
340,0.2721,,,
341,0.2697,,,
342,0.264,,,
343,0.2572,,,
344,0.2454,,,
345,0.2333,,,
346,0.219,,,
347,0.2052,,,
348,0.1947,,,
349,0.1804,,,
350,0.1698,,,
351,0.1597,,,
352,0.1547,,,
353,0.1476,,,
354,0.1439,,,
355,0.1399,,,
356,0.1375,,,
357,0.1359,,,
358,0.1343,,,
359,0.1343,,,
360,0.134,,,
361,0.1349,,,
362,0.1347,,,
363,0.136,,,
364,0.136,,,
365,0.1372,,,
366,0.1378,,,
367,0.1382,,,
368,0.1387,,,
369,0.1396,,,
370,0.1414,,,
371,0.1413,,,
372,0.143,,,
373,0.143,,,
374,0.1439,,,
375,0.1435,,,
376,0.1444,,,
377,0.1438,,,
378,0.1443,,,
379,0.1438,,,
380,0.1429,,,
381,0.142,,,
382,0.1407,,,
383,0.1394,,,
384,0.1373,,,
385,0.1358,,,
386,0.1335,,,
387,0.1314,,,
388,0.1298,,,
389,0.1271,,,
390,0.126,,,
391,0.1228,,,
392,0.1211,,,
393,0.1185,,,
394,0.1168,,,
395,0.1147,,,
396,0.1126,,,
397,0.1103,,,
398,0.1082,,,
399,0.1062,,,
400,0.1035,,,
401,0.1003,,,
402,0.0983,,,
403,0.0959,,,
404,0.093,,,
405,0.0898,,,
406,0.0867,,,
407,0.0835,,,
408,0.0802,,,
409,0.0765,,,
410,0.0737,,,
411,0.0696,,,
412,0.0666,,,
413,0.0632,,,
414,0.0601,,,
415,0.0571,,,
416,0.0546,,,
417,0.0522,,,
418,0.0494,,,
419,0.0476,,,
420,0.046,,,
421,0.0442,,,
422,0.043,,,
423,0.0414,,,
424,0.0404,,,
425,0.0397,,,
426,0.0395,,,
427,0.0391,,,
428,0.0391,,,
429,0.0393,,,
430,0.0397,,,
431,0.0404,,,
432,0.0408,,,
433,0.0418,,,
434,0.0423,,,
435,0.044,,,
436,0.045,,,
437,0.0464,,,
438,0.0473,,,
439,0.0493,,,
440,0.0508,,,
441,0.0533,,,
442,0.055,,,
443,0.0569,,,
444,0.0593,,,
445,0.0613,,,
446,0.0639,,,
447,0.0667,,,
448,0.0691,,,
449,0.0732,,,
450,0.0763,,,
451,0.08,,,
452,0.0837,,,
453,0.0877,,,
454,0.0921,,,
455,0.0972,,,
456,0.102,,,
457,0.108,,,
458,0.1137,,,
459,0.1202,,,
460,0.127,,,
461,0.1336,,,
462,0.1411,,,
463,0.1488,,,
464,0.1567,,,
465,0.1646,,,
466,0.1723,,,
467,0.1803,,,
468,0.1882,,,
469,0.1961,,,
470,0.2036,,,
471,0.2102,,,
472,0.2164,,,
473,0.2232,,,
474,0.2284,,,
475,0.2337,,,
476,0.2394,,,
477,0.2442,,,
478,0.2495,,,
479,0.2554,,,
480,0.2621,,,
481,0.2687,,,
482,0.2773,,,
483,0.2857,,,
484,0.2964,,,
485,0.3071,,,
486,0.3194,,,0.0732
487,0.3326,,,0.0784
488,0.347,,,0.0843
489,0.3625,,,0.0906
490,0.3791,,,0.0971
491,0.3963,,,0.103
492,0.414,,,0.1091
493,0.4327,,,0.1141
494,0.4512,,,0.1182
495,0.4703,,,0.1212
496,0.489,,,0.1222
497,0.5068,,,0.1232
498,0.5232,,,0.1273
499,0.5371,,,0.1343
500,0.5497,0.0036,,0.1404
501,0.5579,0.0032,,0.1455
502,0.5637,0.0036,,0.1525
503,0.565,0.0032,,0.1586
504,0.5624,0.0033,,0.1616
505,0.5553,0.0032,,0.1657
506,0.5445,0.0036,,0.1717
507,0.5285,0.003,,0.1778
508,0.5097,0.0033,,0.1798
509,0.4887,0.0032,,0.1838
510,0.4647,0.0035,,0.1909
511,0.4417,0.003,,0.202
512,0.4185,0.0033,,0.2111
513,0.3961,0.0033,,0.2182
514,0.3754,0.0032,,0.2263
515,0.3578,0.0031,,0.2333
516,0.3425,0.0034,,0.2424
517,0.3305,0.0034,,0.2495
518,0.321,0.0033,,0.2616
519,0.314,0.0032,,0.2687
520,0.31,0.0033,,0.2838
521,0.3081,0.0033,,0.2929
522,0.3094,0.0037,,0.3051
523,0.3117,0.0034,,0.3101
524,0.3162,0.0033,,0.3232
525,0.3222,0.0037,,0.3384
526,0.3297,0.0036,,0.3535
527,0.3386,0.0039,,0.3636
528,0.3483,0.0034,,0.3798
529,0.3594,0.0037,,0.3949
530,0.3711,0.0035,,0.4061
531,0.3838,0.0033,,0.4202
532,0.3971,0.0034,,0.4364
533,0.4108,0.0033,,0.4465
534,0.4251,0.0034,,0.4576
535,0.4388,0.0036,,0.4727
536,0.4521,0.0037,,0.4879
537,0.4661,0.0038,,0.501
538,0.4792,0.0038,,0.5141
539,0.4909,0.0081,,0.5222
540,0.5026,0.0297,,0.5313
541,0.5127,0.0509,,0.5384
542,0.5216,0.0433,,0.5465
543,0.5308,0.0168,,0.5545
544,0.5384,0.0051,,0.5606
545,0.5451,0.0044,,0.5657
546,0.5506,0.0045,,0.5707
547,0.5562,0.0046,,0.5727
548,0.5607,0.0049,,0.5768
549,0.5652,0.0049,,0.5828
550,0.5688,0.0053,,0.5869
551,0.5723,0.0055,,0.5889
552,0.5762,0.0058,,0.5929
553,0.5793,0.0062,,0.6
554,0.5832,0.0066,,0.6061
555,0.5875,0.0077,,0.6101
556,0.5923,0.0075,,0.6152
557,0.5971,0.0086,,0.6212
558,0.6031,0.0093,,0.6333
559,0.6091,0.0094,,0.6404
560,0.6165,0.0112,,0.6545
561,0.6242,0.012,,0.6616
562,0.633,0.0147,,0.6727
563,0.6426,0.0158,,0.6869
564,0.6527,0.0183,,0.703
565,0.6644,0.0196,,0.7061
566,0.6765,0.0222,,0.7101
567,0.6906,0.0257,,0.7242
568,0.7015,0.03,,0.7465
569,0.7218,0.0343,,0.7667
570,0.7392,0.0392,,0.7879
571,0.7571,0.0453,,0.8081
572,0.7767,0.0523,,0.8283
573,0.7968,0.0606,,0.8505
574,0.8184,0.0703,,0.8717
575,0.8403,0.0788,,0.8889
576,0.8626,0.0935,,0.9081
577,0.8845,0.1077,,0.9303
578,0.9067,0.1256,,0.9525
579,0.9275,0.1432,,0.9646
580,0.9462,0.1648,,0.9727
581,0.9638,0.1894,,0.9788
582,0.978,0.2139,,0.9879
583,0.9891,0.2448,,0.9949
584,0.9967,0.2763,,1.0
585,1.0,0.3113,,0.999
586,0.9994,0.3494,,0.9939
587,0.9936,0.3854,,0.9848
588,0.9845,0.4232,,0.9677
589,0.9695,0.466,,0.9535
590,0.9505,0.5129,,0.9434
591,0.9279,0.5547,,0.9313
592,0.9007,0.5948,,0.8758
593,0.8714,0.6365,,0.799
594,0.8375,0.6808,,0.7404
595,0.8021,0.7219,,0.7121
596,0.7637,0.7555,,0.6798
597,0.7256,0.7976,,0.6394
598,0.684,0.8327,,0.6071
599,0.643,0.865,,0.5697
600,0.6009,0.8917,,0.5061
601,0.5591,0.917,,0.4374
602,0.5173,0.9441,,0.398
603,0.476,0.9667,,0.3939
604,0.4367,0.978,,0.3939
605,0.3987,0.9887,,0.3667
606,0.3621,0.995,,0.3182
607,0.3278,1.0,,0.2747
608,0.2955,0.9982,,0.2495
609,0.2646,0.9991,,0.2323
610,0.2371,0.9931,,0.2061
611,0.2108,0.9843,,0.1758
612,0.1872,0.9652,,0.1475
613,0.1664,0.9554,,0.1273
614,0.1465,0.9436,,0.1141
615,0.1295,0.9186,,0.1051
616,0.1138,0.8966,,0.0895
617,0.1,0.882,,0.0735
618,0.0874,0.8526,,0.061
619,0.0771,0.8365,,0.0531
620,0.0666,0.8081,,0.0451
621,0.0586,0.7918,,0.0404
622,0.0511,0.7604,,
623,0.0444,0.7426,,
624,0.0389,0.7157,,
625,0.0337,0.6954,,
626,0.0298,0.6721,,
627,0.026,0.6525,,
628,0.0229,0.6327,,
629,0.0195,0.6093,,
630,0.0177,0.5946,,
631,0.0155,0.5757,,
632,0.0136,0.5563,,
633,0.0118,0.5411,,
634,0.0105,0.5284,,
635,0.0095,0.5088,,
636,0.0079,0.4924,,
637,0.0074,0.4806,,
638,0.0062,0.4708,,
639,0.0057,0.4552,,
640,0.005,0.4398,,
641,0.0047,0.4291,,
642,0.0044,0.4194,,
643,0.0039,0.4075,,
644,0.0036,0.3953,,
645,0.0029,0.3837,,
646,0.0027,0.3744,,
647,0.0023,0.3707,,
648,0.0019,0.3606,,
649,0.0018,0.3521,,
650,0.0018,0.3434,,
651,0.0016,0.332,,
652,0.0011,0.3247,,
653,0.0017,0.3185,,
654,0.0008,0.3081,,
655,0.0009,0.302,,
656,0.0009,0.2929,,
657,0.0004,0.2876,,
658,0.0006,0.28,,
659,0.0004,0.2719,,
660,0.0004,0.2666,,
661,0.0006,0.2594,,
662,0.001,0.2491,,
663,0.0005,0.2452,,
664,0.0004,0.239,,
665,0.0006,0.2291,,
666,0.0001,0.2261,,
667,0.0003,0.2181,,
668,0.0002,0.2105,,
669,0.0003,0.2049,,
670,0.0002,0.1987,,
671,0.0005,0.1899,,
672,0.0,0.1852,,
673,0.0004,0.1802,,
674,0.0,0.1764,,
675,0.0006,0.1676,,
676,0.0,0.1623,,
677,0.0,0.158,,
678,0.0003,0.1504,,
679,0.0,0.1453,,
680,0.0004,0.1396,,
681,0.0,0.1345,,
682,0.0,0.1299,,
683,0.0,0.1236,,
684,0.0001,0.1184,,
685,0.0,0.1158,,
686,0.0,0.1111,,
687,0.0003,0.1061,,
688,0.0,0.1047,,
689,0.0004,0.1003,,
690,0.0002,0.0976,,
691,0.0002,0.0924,,
692,0.0,0.0918,,
693,0.0004,0.087,,
694,0.0001,0.0845,,
695,0.0002,0.0815,,
696,0.0001,0.0791,,
697,0.0,0.076,,
698,0.0,0.0725,,
699,0.0002,0.0704,,
700,0.0002,0.0698,,
701,,0.0672,,
702,,0.0641,,
703,,0.0607,,
704,,0.0591,,
705,,0.0585,,
706,,0.056,,
707,,0.0521,,
708,,0.0521,,
709,,0.0501,,
710,,0.0496,,
711,,0.0458,,
712,,0.043,,
713,,0.0424,,
714,,0.0423,,
715,,0.0418,,
716,,0.0393,,
717,,0.0374,,
718,,0.0378,,
719,,0.0352,,
720,,0.0345,2.7147,
721,,0.0335,2.73,
722,,0.0316,2.7442,
723,,0.0322,2.7574,
724,,0.0302,2.7695,
725,,0.0293,2.7857,
726,,0.0283,2.7971,
727,,0.0268,2.8026,
728,,0.0272,2.7956,
729,,0.0256,2.7678,
730,,0.0253,2.7328,
731,,0.0234,2.7068,
732,,0.0232,2.6853,
733,,0.023,2.6682,
734,,0.0214,2.6538,
735,,0.0215,2.6419,
736,,0.0206,2.6251,
737,,0.0203,2.5939,
738,,0.02,2.5617,
739,,0.0188,2.5427,
740,,0.0187,2.5266,
741,,0.0179,2.5052,
742,,0.0171,2.479,
743,,0.0167,2.4475,
744,,0.0154,2.4106,
745,,0.0157,2.37,
746,,0.0154,2.3332,
747,,0.0149,2.3016,
748,,0.014,2.274,
749,,0.0144,2.2547,
750,,0.0136,2.2435,
751,,,2.2372,
752,,,2.2348,
753,,,2.2348,
754,,,2.2291,
755,,,2.2086,
756,,,2.1844,
757,,,2.1629,
758,,,2.1444,
759,,,2.137,
760,,,2.1326,
761,,,2.1273,
762,,,2.1098,
763,,,2.0685,
764,,,2.0102,
765,,,1.9346,
766,,,1.8636,
767,,,1.8224,
768,,,1.8023,
769,,,1.8095,
770,,,1.8146,
771,,,1.7839,
772,,,1.7227,
773,,,1.6313,
774,,,1.5346,
775,,,1.4514,
776,,,1.3904,
777,,,1.3655,
778,,,1.3551,
779,,,1.3456,
780,,,1.3383,
781,,,1.3241,
782,,,1.3026,
783,,,1.2732,
784,,,1.2386,
785,,,1.1998,
786,,,1.1609,
787,,,1.1146,
788,,,1.0779,
789,,,1.0764,
790,,,1.101,
791,,,1.1398,
792,,,1.1797,
793,,,1.209,
794,,,1.2157,
795,,,1.1869,
796,,,1.1489,
797,,,1.1215,
798,,,1.092,
799,,,1.0609,
800,,,1.0295,
801,,,0.9989,
802,,,0.9675,
803,,,0.9375,
804,,,0.9044,
805,,,0.8631,
806,,,0.8158,
807,,,0.7633,
808,,,0.7103,
809,,,0.6639,
810,,,0.6249,
811,,,0.5945,
812,,,0.5653,
813,,,0.5288,
814,,,0.4903,
815,,,0.4548,
816,,,0.424,
817,,,0.3957,
818,,,0.3696,
819,,,0.3478,
820,,,0.3265,
821,,,0.2981,
822,,,0.2726,
823,,,0.2577,
824,,,0.2467,
825,,,0.2337,
826,,,0.2236,
827,,,0.2192,
828,,,0.2144,
829,,,0.2033,
830,,,0.1914,
831,,,0.1821,
832,,,0.1736,
833,,,0.165,
834,,,0.1586,
835,,,0.1559,
836,,,0.1538,
837,,,0.1492,
838,,,0.1441,
839,,,0.1388,
840,,,0.1333,
841,,,0.1275,
842,,,0.1224,
843,,,0.1195,
844,,,0.117,
845,,,0.1134,
846,,,0.1097,
847,,,0.1062,
848,,,0.1033,
849,,,0.1008,
850,,,0.1001,
851,,,0.1031,
852,,,0.1068,
853,,,0.1082,
854,,,0.108,
855,,,0.1062,
856,,,0.1032,
857,,,0.0992,
858,,,0.0956,
859,,,0.0934,
860,,,0.0914,
861,,,0.0896,
862,,,0.0886,
863,,,0.0881,
864,,,0.0879,
865,,,0.0885,
866,,,0.0889,
867,,,0.0878,
868,,,0.0868,
869,,,0.0872,
870,,,0.0884,
871,,,0.0902,
872,,,0.0925,
873,,,0.095,
874,,,0.0969,
875,,,0.0971,
876,,,0.0972,
877,,,0.0981,
878,,,0.0994,
879,,,0.1017,
880,,,0.1036,
881,,,0.1037,
882,,,0.1026,
883,,,0.101,
884,,,0.0992,
885,,,0.0973,
886,,,0.096,
887,,,0.095,
888,,,0.0953,
889,,,0.0987,
890,,,0.1045,
891,,,0.1112,
892,,,0.1176,
893,,,0.1228,
894,,,0.126,
895,,,0.1265,
896,,,0.1259,
897,,,0.1261,
898,,,0.1246,
899,,,0.12,
900,,,0.1142,
901,,,0.1094,
902,,,0.1055,
903,,,0.1025,
904,,,0.1005,
905,,,0.0996,
906,,,0.0988,
907,,,0.0968,
908,,,0.095,
909,,,0.0932,
910,,,0.0913,
911,,,0.0894,
912,,,0.088,
913,,,0.0872,
914,,,0.0872,
915,,,0.0876,
916,,,0.0884,
917,,,0.0892,
918,,,0.0905,
919,,,0.0915,
920,,,0.0928,
921,,,0.0948,
922,,,0.0972,
923,,,0.0992,
924,,,0.1014,
925,,,0.1039,
926,,,0.1061,
927,,,0.1073,
928,,,0.1082,
929,,,0.1091,
930,,,0.1098,
931,,,0.1105,
932,,,0.1119,
933,,,0.1141,
934,,,0.1167,
935,,,0.1192,
936,,,0.1214,
937,,,0.123,
938,,,0.1245,
939,,,0.1261,
940,,,0.1277,
941,,,0.1288,
942,,,0.1296,
943,,,0.1309,
944,,,0.1324,
945,,,0.1341,
946,,,0.136,
947,,,0.138,
948,,,0.1399,
949,,,0.1416,
950,,,0.1434,
951,,,0.1452,
952,,,0.1469,
953,,,0.1489,
954,,,0.1508,
955,,,0.1524,
956,,,0.1542,
957,,,0.1571,
958,,,0.1601,
959,,,0.1618,
960,,,0.1634,
961,,,0.1663,
962,,,0.1695,
963,,,0.1722,
964,,,0.1751,
965,,,0.1789,
966,,,0.1829,
967,,,0.1864,
968,,,0.1903,
969,,,0.1946,
970,,,0.1987,
971,,,0.2023,
972,,,0.206,
973,,,0.2102,
974,,,0.2146,
975,,,0.2185,
976,,,0.222,
977,,,0.2247,
978,,,0.2278,
979,,,0.2325,
980,,,0.238,
981,,,0.2438,
982,,,0.2488,
983,,,0.2521,
984,,,0.2543,
985,,,0.2561,
986,,,0.2584,
987,,,0.2625,
988,,,0.2669,
989,,,0.271,
990,,,0.2745,
991,,,0.2773,
992,,,0.2799,
993,,,0.2826,
994,,,0.2858,
995,,,0.2906,
996,,,0.296,
997,,,0.3015,
998,,,0.3061,
999,,,0.307,
1000,,,0.3065,
1001,,,0.3073,
1002,,,0.3101,
1003,,,0.3158,
1004,,,0.3234,
1005,,,0.3319,
1006,,,0.3395,
1007,,,0.3439,
1008,,,0.3481,
1009,,,0.3537,
1010,,,0.3598,
1011,,,0.3656,
1012,,,0.3714,
1013,,,0.3775,
1014,,,0.384,
1015,,,0.3905,
1016,,,0.3977,
1017,,,0.4064,
1018,,,0.4153,
1019,,,0.4235,
1020,,,0.4313,
1021,,,0.4386,
1022,,,0.4452,
1023,,,0.4499,
1024,,,0.4555,
1025,,,0.4657,
1026,,,0.4785,
1027,,,0.4921,
1028,,,0.5052,
1029,,,0.5171,
1030,,,0.5263,
1031,,,0.5312,
1032,,,0.535,
1033,,,0.5404,
1034,,,0.5462,
1035,,,0.552,
1036,,,0.5594,
1037,,,0.5701,
1038,,,0.5829,
1039,,,0.5957,
1040,,,0.6092,
1041,,,0.6234,
1042,,,0.6383,
1043,,,0.6535,
1044,,,0.6692,
1045,,,0.6861,
1046,,,0.7009,
1047,,,0.71,
1048,,,0.7165,
1049,,,0.7228,
1050,,,0.7306,
1051,,,0.7423,
1052,,,0.7568,
1053,,,0.7726,
1054,,,0.7877,
1055,,,0.8017,
1056,,,0.8142,
1057,,,0.8224,
1058,,,0.8285,
1059,,,0.835,
1060,,,0.8413,
1061,,,0.8471,
1062,,,0.8552,
1063,,,0.8691,
1064,,,0.8835,
1065,,,0.8939,
1066,,,0.9023,
1067,,,0.9092,
1068,,,0.9149,
1069,,,0.9189,
1070,,,0.9252,
1071,,,0.9409,
1072,,,0.9578,
1073,,,0.9655,
1074,,,0.9686,
1075,,,0.9729,
1076,,,0.9768,
1077,,,0.9784,
1078,,,0.982,
1079,,,0.9925,
1080,,,1.0,
1081,,,0.9962,
1082,,,0.9908,
1083,,,0.9926,
1084,,,0.9941,
1085,,,0.9902,
1086,,,0.9824,
1087,,,0.9723,
1088,,,0.9577,
1089,,,0.9361,
1090,,,0.9155,
1091,,,0.902,
1092,,,0.8937,
1093,,,0.8927,
1094,,,0.8962,
1095,,,0.8984,
1096,,,0.8975,
1097,,,0.8914,
1098,,,0.8825,
1099,,,0.8711,
1100,,,0.861,
1101,,,0.8566,
1102,,,0.8524,
1103,,,0.8448,
1104,,,0.8364,
1105,,,0.8285,
1106,,,0.8206,
1107,,,0.812,
1108,,,0.8046,
1109,,,0.8018,
1110,,,0.7992,
1111,,,0.7892,
1112,,,0.7779,
1113,,,0.7732,
1114,,,0.7723,
1115,,,0.7735,
1116,,,0.7755,
1117,,,0.7757,
1118,,,0.7697,
1119,,,0.7545,
1120,,,0.7393,
1121,,,0.7295,
1122,,,0.7234,
1123,,,0.7228,
1124,,,0.7242,
1125,,,0.724,
1126,,,0.7229,
1127,,,0.7182,
1128,,,0.7118,
1129,,,0.7063,
1130,,,0.7026,
1131,,,0.7002,
1132,,,0.6987,
1133,,,0.6993,
1134,,,0.6998,
1135,,,0.698,
1136,,,0.6966,
1137,,,0.6965,
1138,,,0.696,
1139,,,0.6961,
1140,,,0.6966,
1141,,,0.6956,
1142,,,0.6934,
1143,,,0.6906,
1144,,,0.6876,
1145,,,0.6847,
1146,,,0.6838,
1147,,,0.6873,
1148,,,0.6909,
1149,,,0.6907,
1150,,,0.6893,
1151,,,0.6875,
1152,,,0.6861,
1153,,,0.6871,
1154,,,0.6891,
1155,,,0.6906,
1156,,,0.6901,
1157,,,0.6864,
1158,,,0.6815,
1159,,,0.6775,
1160,,,0.6745,
1161,,,0.6726,
1162,,,0.6697,
1163,,,0.6656,
1164,,,0.6599,
1165,,,0.6515,
1166,,,0.6414,
1167,,,0.6304,
1168,,,0.6186,
1169,,,0.6075,
1170,,,0.5974,
1171,,,0.5883,
1172,,,0.5792,
1173,,,0.5698,
1174,,,0.5596,
1175,,,0.548,
1176,,,0.536,
1177,,,0.524,
1178,,,0.5113,
1179,,,0.498,
1180,,,0.485,
1181,,,0.4726,
1182,,,0.4608,
1183,,,0.4502,
1184,,,0.4399,
1185,,,0.4286,
1186,,,0.417,
1187,,,0.4051,
1188,,,0.393,
1189,,,0.3809,
1190,,,0.3693,
1191,,,0.3583,
1192,,,0.3475,
1193,,,0.3363,
1194,,,0.3253,
1195,,,0.3148,
1196,,,0.3049,
1197,,,0.2952,
1198,,,0.2854,
1199,,,0.2755,
1200,,,0.2655,
1201,,,0.255,
1202,,,0.2445,
1203,,,0.2347,
1204,,,0.2249,
1205,,,0.2146,
1206,,,0.2044,
1207,,,0.1947,
1208,,,0.1853,
1209,,,0.1764,
1210,,,0.1678,
1211,,,0.1595,
1212,,,0.1512,
1213,,,0.1429,
1214,,,0.135,
1215,,,0.1275,
1216,,,0.1205,
1217,,,0.1141,
1218,,,0.1078,
1219,,,0.1014,
1220,,,0.0952,
1221,,,0.0896,
1222,,,0.0845,
1223,,,0.0797,
1224,,,0.0753,
1225,,,0.0711,
1226,,,0.0672,
1227,,,0.0634,
1228,,,0.0599,
1229,,,0.0568,
1230,,,0.0538,
1231,,,0.0509,
1232,,,0.0481,
1233,,,0.0457,
1234,,,0.0434,
1235,,,0.0413,
1236,,,0.0392,
1237,,,0.0371,
1238,,,0.035,
1239,,,0.033,
1240,,,0.0311,
1241,,,0.0293,
1242,,,0.0277,
1243,,,0.0262,
1244,,,0.0247,
1245,,,0.0232,
1246,,,0.0218,
1247,,,0.0205,
1248,,,0.0193,
1249,,,0.0182,
1250,,,0.0172,
1251,,,0.0162,
1252,,,0.0152,
1253,,,0.0144,
1254,,,0.0135,
1255,,,0.0127,
1256,,,0.0119,
1257,,,0.0112,
1258,,,0.0105,
1259,,,0.0099,
1260,,,0.0093,
1261,,,0.0087,
1262,,,0.0082,
1263,,,0.0077,
1264,,,0.0074,
1265,,,0.007,
1266,,,0.0067,
1267,,,0.0062,
1268,,,0.0058,
1269,,,0.0053,
1270,,,0.0049,
1271,,,0.0046,
1272,,,0.0044,
1273,,,0.0042,
1274,,,0.0039,
1275,,,0.0037,
1276,,,0.0035,
1277,,,0.0032,
1278,,,0.003,
1279,,,0.0028,
1280,,,0.0026,
1281,,,0.0026,
1282,,,0.0025,
1283,,,0.0024,
1284,,,0.0023,
1285,,,0.0022,
1286,,,0.0021,
1287,,,0.0019,
1288,,,0.0017,
1289,,,0.0016,
1290,,,0.0016,
1291,,,0.0015,
1292,,,0.0014,
1293,,,0.0013,
1294,,,0.0013,
1295,,,0.0012,
1296,,,0.0011,
1297,,,0.0011,
1298,,,0.001,
1299,,,0.001,
1300,,,0.0009,
1301,,,0.0009,
1302,,,0.0008,
1303,,,0.0008,
1304,,,0.0007,
1305,,,0.0007,
1306,,,0.0006,
1307,,,0.0006,
1308,,,0.0006,
1309,,,0.0005,
1310,,,0.0005,
1311,,,0.0004,
1312,,,0.0004,
1313,,,0.0004,
1314,,,0.0004,
1315,,,0.0004,
1316,,,0.0004,
1317,,,0.0003,
1318,,,0.0003,
1319,,,0.0003,
1320,,,0.0002,
1321,,,0.0002,
1322,,,0.0001,
1323,,,0.0001,
1324,,,0.0001,
1325,,,0.0001,
1326,,,0.0001,
1327,,,0.0001,
1328,,,0.0001,
1329,,,0.0001,
1330,,,0.0001,
1331,,,0.0001,
1332,,,0.0001,
1333,,,0.0001,
1334,,,0.0001,
1335,,,0.0001,
1336,,,0.0001,
1337,,,0.0001,
1338,,,0.0001,
1339,,,0.0001,
1340,,,0.0001,
1341,,,0.0001,
1342,,,0.0001,
1343,,,0.0001,
1344,,,0.0001,
1345,,,0.0001,
1346,,,0.0001,
1347,,,0.0001,
1348,,,0.0001,
1349,,,0.0001,
1350,,,0.0001,
1351,,,0.0001,
1352,,,0.0001,
1353,,,0.0001,
1354,,,0.0001,
1355,,,0.0001,
1356,,,0.0001,
1357,,,0.0001,
1358,,,0.0001,
1359,,,0.0001,
1360,,,0.0001,
1361,,,0.0001,
1362,,,0.0001,
1363,,,0.0001,
1364,,,0.0001,
1365,,,0.0001,
1366,,,0.0001,
1367,,,0.0001,
1368,,,0.0,
1369,,,0.0,
1370,,,0.0001,
1371,,,0.0001,
1372,,,0.0001,
1373,,,0.0001,
1374,,,0.0001,
1375,,,0.0001,
1376,,,0.0,
1377,,,0.0,
1378,,,0.0,
1379,,,0.0001,
1380,,,0.0001,
1381,,,0.0001,
1382,,,0.0001,
1383,,,0.0001,
1384,,,0.0001,
1385,,,0.0001,
1386,,,0.0001,
1387,,,0.0001,
1388,,,0.0001,
1389,,,0.0,
1390,,,0.0,
1391,,,0.0001,
1392,,,0.0001,
1393,,,0.0001,
1394,,,0.0001,
1395,,,0.0001,
1396,,,0.0001,
1397,,,0.0001,
1398,,,0.0,
1399,,,0.0,
